t,pressure
0,74690.22231414828
0.1,74689.88283825282
0.2,74681.36609622298
0.30000000000000004,74661.5427852365
0.4,74630.78046266634
0.5,74588.7151063811
0.6000000000000001,74535.0137722131
0.7000000000000001,74469.49107198104
0.8,74392.00274143895
0.9,74302.40651113856
1.0,74200.5568040925
1.1,74086.32633345912
1.2000000000000002,73959.69467028313
1.3,73820.70729103606
1.4000000000000001,73669.51067778394
1.5,73506.36835944664
1.6,73331.54245269786
1.7000000000000002,73145.08588425512
1.8,72946.75381452568
1.9000000000000001,72736.5592081935
2.0,72515.37002938888
2.1,72283.9996921717
2.2,72041.91041218783
2.3000000000000003,71788.77662227997
2.4000000000000004,71526.27777769952
2.5,71254.98669005137
2.6,70973.756509157
2.7,70684.39257294362
2.8000000000000003,70387.99892649453
2.9000000000000004,70083.17155915251
3.0,69772.35236273259
3.1,69455.790103737
3.2,69134.88890378259
3.3000000000000003,68814.66798952853
3.4000000000000004,68495.1525983469
3.5,68179.54121084533
3.6,67867.81999674227
3.7,67559.51655309874
3.8000000000000003,67257.06772893653
3.9000000000000004,66958.39440040075
4.0,66665.72212427191
4.1000000000000005,66378.35798713432
4.2,66095.00451877706
4.3,65817.5480229847
4.4,65543.6666330084
4.5,65273.990001169754
4.6000000000000005,65009.24765063344
4.7,64747.21364275232
4.800000000000001,64489.44421606152
4.9,64235.670158014334
5.0,63984.2049456823
5.1000000000000005,63736.830606423355
5.2,63492.80119727964
5.300000000000001,63250.83621733827
5.4,63012.72588011833
5.5,62777.675547215695
5.6000000000000005,62544.51611799804
5.7,62314.94651028654
5.800000000000001,62088.376896395755
5.9,61863.497367408265
6.0,61641.83181332746
6.1000000000000005,61423.25912005604
6.2,61206.24138498364
6.300000000000001,60991.913994342016
6.4,60780.82112721626
6.5,60571.35294150889
6.6000000000000005,60363.921443227715
6.7,60159.71650281743
6.800000000000001,59957.51017009132
6.9,59756.7426160412
7.0,59558.8180062791
7.1000000000000005,59363.473339560034
7.2,59169.39597606903
7.300000000000001,58977.371295465055
7.4,58788.266763066385
7.5,58600.9024205462
7.6000000000000005,58414.81439072422
7.7,58231.246979746975
7.800000000000001,58050.1887075322
7.9,57870.37664553979
8.0,57692.10444771693
8.1,57516.4703440061
8.200000000000001,57342.89824697455
8.3,57170.38174538166
8.4,56999.595161011115
8.5,56831.370768513865
8.6,56664.91273493053
8.700000000000001,56499.438879211484
8.8,56335.723797722516
8.9,56174.44762854217
9.0,56014.80525319942
9.1,55856.08836276047
9.200000000000001,55699.01134396576
9.3,55544.259575995166
9.4,55391.158015053836
9.5,55238.9369176666
9.600000000000001,55088.116108461
9.700000000000001,54939.48258995615
9.8,54792.635256827394
9.9,54646.703269484744
10.0,54501.85511588816
10.100000000000001,54358.942448894515
10.200000000000001,54217.994492852995
10.3,54078.168482583795
10.4,53939.15416262386
10.5,53801.63907303121
10.600000000000001,53666.134327013264
10.700000000000001,53532.138045448475
10.8,53398.93947113231
10.9,53266.711903644486
11.0,53136.193255136444
11.100000000000001,53007.5238309037
11.200000000000001,52880.036005923714
11.3,52753.250540384855
11.4,52627.55064687216
11.5,52503.58057547607
11.600000000000001,52381.30190603974
11.700000000000001,52260.05402584171
11.8,52139.474031443875
11.9,52019.965542987164
12.0,51902.11138082042
12.100000000000001,51785.876713604106
12.200000000000001,51670.662086580465
12.3,51556.08520623752
12.4,51442.44722083785
12.5,51330.315336544714
12.600000000000001,51219.79578243705
12.700000000000001,51110.40794653988
12.8,51001.67409710238
12.9,50893.676396172785
13.0,50786.928299010564
13.100000000000001,50681.75296598508
13.200000000000001,50577.91067060543
13.3,50474.87913695063
13.4,50372.43343667077
13.5,50270.87103305123
13.600000000000001,50170.66195051457
13.700000000000001,50071.93368487862
13.8,49974.34179340086
13.9,49877.43464572128
14.0,49781.10839544887
14.100000000000001,49685.68958611615
14.200000000000001,49591.58836792693
14.3,49498.88876223034
14.4,49407.27343312141
14.5,49316.331664782076
14.600000000000001,49225.937909481
14.700000000000001,49136.348861889484
14.8,49047.950446564886
14.9,48960.90372233186
15.0,48875.00688536807
15.100000000000001,48789.877550395046
15.200000000000001,48705.278369705105
15.3,48621.303740969735
15.4,48538.28353698647
15.5,48456.501679490604
15.600000000000001,48375.967055451416
15.700000000000001,48296.41289677377
15.8,48217.508911909266
15.9,48139.10977166268
16.0,48061.35147480131
16.1,47984.53559853981
16.2,47908.900546063785
16.3,47834.45089075947
16.400000000000002,47760.96011661185
16.5,47688.13214887509
16.6,47615.800611935614
16.7,47544.03028025189
16.8,47473.06152442295
16.900000000000002,47403.14524072807
17.0,47334.38096228386
17.1,47266.65861840488
17.2,47199.731706074715
17.3,47133.36791760992
17.400000000000002,47067.48237355186
17.5,47002.177485817294
17.6,46937.67395559676
17.7,46874.17996036077
17.8,46811.775300602385
17.900000000000002,46750.37190729143
18.0,46689.765597080856
18.1,46629.74494631646
18.2,46570.19706569596
18.3,46511.15743731155
18.400000000000002,46452.78375563276
18.5,46395.27255846037
18.6,46338.762854428714
18.7,46283.272672835315
18.8,46228.69481096435
18.900000000000002,46174.84878155624
19.0,46121.5614964781
19.1,46068.73950659164
19.200000000000003,46016.402974537814
19.3,45964.67052381696
19.400000000000002,45913.70527953089
19.5,45863.646898193205
19.6,45814.55731903672
19.700000000000003,45766.39979927851
19.8,45719.05620604553
19.900000000000002,45672.37288994146
20.0,45626.21615219716
20.1,45580.516888396
20.200000000000003,45535.29000406462
20.3,45490.62424820661
20.400000000000002,45446.64848220554
20.5,45403.4874272543
20.6,45361.22186745509
20.700000000000003,45319.8652455388
20.8,45279.362258326844
20.900000000000002,45239.60784936297
21.0,45200.47920421405
21.1,45161.87044441893
21.200000000000003,45123.72014255602
21.3,45086.02483935653
21.400000000000002,45048.83629201457
21.5,45012.24470739062
21.6,44976.3535483087
21.700000000000003,44941.25297014877
21.8,44906.99845110573
21.900000000000002,44873.599197906704
22.0,44841.01802323867
22.1,44809.18163608967
22.200000000000003,44777.99804489444
22.3,44747.37662742995
22.400000000000002,44717.24638542483
22.5,44687.56881586283
22.6,44658.34335280153
22.700000000000003,44629.60505658368
22.8,44601.41576935213
22.900000000000002,44573.851041713635
23.0,44546.985623272434
23.1,44520.88025163857
23.200000000000003,44495.571865129146
23.3,44471.06855323842
23.400000000000002,44447.349582550065
23.5,44424.369975300244
23.6,44402.068458983835
23.700000000000003,44380.377231744904
23.8,44359.23191196509
23.900000000000002,44338.580217707764
24.0,44318.38828619427
24.1,44298.64401229997
24.200000000000003,44279.3572675162
24.3,44260.557295313876
24.400000000000002,44242.28790379624
24.5,44224.60127376462
24.6,44207.5512694077
24.700000000000003,44191.18708316972
24.8,44175.547901837286
24.900000000000002,44160.6590794168
25.0,44146.53007463921
25.1,44133.15418970422
25.200000000000003,44120.509954469766
25.3,44108.563853985164
25.400000000000002,44097.27400213059
25.5,44086.59432258806
25.6,44076.47880467125
25.700000000000003,44066.88544741831
25.8,44057.779579273556
25.900000000000002,44049.136330476875
26.0,44040.942137908816
26.1,44033.19523664239
26.200000000000003,44025.90520877465
26.3,44019.09169252475
26.400000000000002,44012.78242682683
26.5,44007.01082772357
26.6,44001.81330810666
26.700000000000003,43997.22654779588
26.8,43993.2849038775
26.900000000000002,43990.01812419793
27.0,43987.449487347614
27.1,43985.59447013507
27.200000000000003,43984.4599754918
27.3,43984.04414467761
27.400000000000002,43984.33684356234
27.5,43985.320053549294
27.6,43986.969878020456
27.700000000000003,43989.25767927821
27.8,43992.152028438046
27.900000000000002,43995.620637793065
28.0,43999.63228241454
28.1,44004.15860463048
28.200000000000003,44009.17570580938
28.3,44014.665444181075
28.400000000000002,44020.61637437829
28.5,44027.02428328681
28.6,44033.89229703507
28.700000000000003,44041.23055531828
28.8,44049.0554712829
28.900000000000002,44057.48308004947
29.0,44066.17038806594
29.1,44074.88913223173
29.200000000000003,44083.64464429849
29.3,44092.441584231005
29.400000000000002,44101.28401089966
29.5,44110.17544349142
29.6,44119.118915177205
29.700000000000003,44128.117020288904
29.8,44137.171956026854
29.900000000000002,44146.28555953719
30.0,44155.45934104812
30.1,44164.69451363544
30.200000000000003,44173.99202008808
30.3,44183.35255726678
30.400000000000002,44192.776598280434
30.5,44202.26441275394
30.6,44211.81608541406
30.700000000000003,44221.431533185605
30.8,44231.11052095785
30.900000000000002,44240.852676158196
31.0,44250.6575022474
31.1,44260.52439123542
31.200000000000003,44270.452635301124
31.3,44280.44143758913
31.400000000000002,44290.48992224574
31.5,44300.597143751016
31.6,44310.76209559938
31.700000000000003,44320.983718352945
31.8,44331.26090712115
31.900000000000002,44341.59251850244
32.0,44351.97737701617
32.1,44362.4142810544
32.2,44372.90200838028
32.300000000000004,44383.43932119867
32.4,44394.02497082216
32.5,44404.65770195548
32.6,44415.33625661937
32.7,44426.05937773416
32.800000000000004,44436.8258123825
32.9,44447.63431477009
33.0,44458.48364890157
33.1,44469.37259098926
33.2,44480.299931610905
33.300000000000004,44491.264477632256
33.4,44502.26505390948
33.5,44513.30050478598
33.6,44524.36969539747
33.7,44535.4715127988
33.800000000000004,44546.60486692475
33.9,44557.768691397265
34.0,44568.96194419078
34.1,44580.18360816619
34.2,44591.43269148424
34.300000000000004,44602.708227908166
34.4,44614.0092770047
34.5,44625.33492425263
34.6,44636.68428106705
34.7,44648.05648474707
34.800000000000004,44659.450698354565
34.9,44670.86611053075
35.0,44682.301935257
35.1,44693.75741156616
35.2,44705.23180320975
35.300000000000004,44716.72439828672
35.4,44728.234508837
35.5,44739.76147040821
35.6,44751.304641594776
35.7,44762.863403556934
35.800000000000004,44774.437159521556
35.9,44786.0253342688
36.0,44797.62737360661
36.1,44809.24274383704
36.2,44820.870931216574
36.300000000000004,44832.51144141019
36.4,44844.16379894619
36.5,44855.82754667097
36.6,44867.502245202384
36.7,44879.18747238882
36.800000000000004,44890.8828227714
36.9,44902.58790705239
37.0,44914.302351569735
37.1,44926.02579777941
37.2,44937.75790174653
37.300000000000004,44949.49833364366
37.4,44961.24677726096
37.5,44973.00292952638
37.6,44984.76650003436
37.7,44996.537210587274
37.800000000000004,45008.31479474722
37.9,45020.09899739963
38.0,45031.88957432806
38.1,45043.686291800834
38.2,45055.48892616961
38.300000000000004,45067.29726347834
38.400000000000006,45079.111099085516
38.5,45090.93023729809
38.6,45102.75449101529
38.7,45114.58368138453
38.800000000000004,45126.417637469174
38.900000000000006,45138.256195927424
39.0,45150.09920070099
39.1,45161.94650271545
39.2,45173.79795959071
39.300000000000004,45185.65343536178
39.400000000000006,45197.512800209646
39.5,45209.37593020249
39.6,45221.242707045625
39.7,45233.11301784066
39.800000000000004,45244.986754854646
39.900000000000006,45256.86381529784
40.0,45268.74410110935
40.1,45280.62751875173
40.2,45292.51397901334
40.300000000000004,45304.40339681867
40.400000000000006,45316.29569104612
40.5,45328.1907843537
40.6,45340.08860301074
40.7,45351.989076737016
40.800000000000004,45363.892138548625
40.900000000000006,45375.797724610355
41.0,45387.705774093454
41.1,45399.61622904027
41.2,45411.529034233674
41.300000000000004,45423.44413707298
41.400000000000006,45435.36148745428
41.5,45447.2810376565
41.6,45459.20274223215
41.7,45471.12655790252
41.800000000000004,45483.05244345791
41.900000000000006,45494.98035966197
42.0,45506.910269160195
42.1,45518.842136392515
42.2,45530.775927509625
42.300000000000004,45542.71161029327
42.400000000000006,45554.64915407993
42.5,45566.58852968764
42.6,45578.52970934666
42.7,45590.47266663286
42.800000000000004,45602.41737640405
42.900000000000006,45614.363814739765
43.0,45626.311958882856
43.1,45638.261787184834
43.2,45650.21327905246
43.300000000000004,45662.166414897976
43.400000000000006,45674.12117609076
43.5,45686.07754491193
43.6,45698.035504510364
43.7,45709.995038861074
43.800000000000004,45721.95613272549
43.900000000000006,45733.918771613855
44.0,45745.88294174874
44.1,45757.848630030334
44.2,45769.815824003985
44.300000000000004,45781.78451183093
44.400000000000006,45793.754682254985
44.5,45805.72632457742
44.6,45817.69942862635
44.7,45829.67398473381
44.800000000000004,45841.64998371021
44.900000000000006,45853.62741682103
45.0,45865.606275761325
45.1,45877.58655264393
45.2,45889.568239972104
45.300000000000004,45901.551330617294
45.400000000000006,45913.535817808835
45.5,45925.521695109455
45.6,45937.50895640473
45.7,45949.497595881
45.800000000000004,45961.487608016956
45.900000000000006,45973.47898756359
46.0,45985.471729535224
46.1,45997.465829192464
46.2,46009.461282033924
46.300000000000004,46021.4580837801
46.400000000000006,46033.45623036683
46.5,46045.45571793071
46.6,46057.45654280233
46.7,46069.4587014932
46.800000000000004,46081.46219069033
46.900000000000006,46093.46700724434
47.0,46105.47314816379
47.1,46117.48061060497
47.2,46129.48939186688
47.300000000000004,46141.499489381415
47.400000000000006,46153.51090070943
47.5,46165.52362353201
47.6,46177.537655646236
47.7,46189.552994957456
47.800000000000004,46201.56963947581
47.900000000000006,46213.58758730929
48.0,46225.60683666012
48.1,46237.62738581877
48.2,46249.64923316077
48.300000000000004,46261.67237714102
48.400000000000006,46273.69681629119
48.5,46285.722549214646
48.6,46297.74957458375
48.7,46309.77789113547
48.800000000000004,46321.807497669
48.900000000000006,46333.8383930418
49.0,46345.87057616733
49.1,46357.904046011514
49.2,46369.938801590804
49.300000000000004,46381.97484196881
49.400000000000006,46394.01216625469
49.5,46406.05077360015
49.6,46418.09066319784
49.7,46430.131834278705
49.800000000000004,46442.174286110574
49.900000000000006,46454.2180179958
50.0,46466.263029269896
50.1,46478.30931929944
50.2,46490.3568874809
50.300000000000004,46502.40573323871
50.400000000000006,46514.45585602414
50.5,46526.507255313736
50.6,46538.55993060808
50.7,46550.61388143054
50.800000000000004,46562.669107326125
50.900000000000006,46574.72560786039
51.0,46586.783382618276
51.1,46598.84243120322
51.2,46610.902753236114
51.300000000000004,46622.96434835453
51.400000000000006,46635.02721621165
51.5,46647.091356475736
51.6,46659.156768829074
51.7,46671.22345296744
51.800000000000004,46683.29140859932
51.900000000000006,46695.36063544525
52.0,46707.431133237194
52.1,46719.502901718035
52.2,46731.57594064084
52.300000000000004,46743.65024976856
52.400000000000006,46755.725828873256
52.5,46767.802677735825
52.6,46779.880796145415
52.7,46791.96018389912
52.800000000000004,46804.040840801434
52.900000000000006,46816.122766663975
53.0,46828.20596130501
53.1,46840.290424549225
53.2,46852.37615622725
53.300000000000004,46864.46315617554
53.400000000000006,46876.5514242358
53.5,46888.64096025503
53.6,46900.7317640849
53.7,46912.823835581905
53.800000000000004,46924.9171746067
53.900000000000006,46937.01178102424
54.0,46949.107654703184
54.1,46961.20479551611
54.2,46973.303203338975
54.300000000000004,46985.4028780512
54.400000000000006,46997.50381953515
54.5,47009.60602767638
54.6,47021.70950236313
54.7,47033.81424348644
54.800000000000004,47045.92025093973
54.900000000000006,47058.027524618985
55.0,47070.13606442234
55.1,47082.24587025015
55.2,47094.35694200478
55.300000000000004,47106.46927959059
55.400000000000006,47118.58288291366
55.5,47130.697751881904
55.6,47142.813886404765
55.7,47154.93128639336
55.800000000000004,47167.04995176011
55.900000000000006,47179.16988241903
56.0,47191.29107828527
56.1,47203.41353927532
56.2,47215.53726530679
56.300000000000004,47227.66225629847
56.400000000000006,47239.78851217015
56.5,47251.91603284265
56.6,47264.044818237606
56.7,47276.174868277754
56.800000000000004,47288.306182886474
56.900000000000006,47300.43876198809
57.0,47312.57260550756
57.1,47324.70771337066
57.2,47336.8440855037
57.300000000000004,47348.98172183378
57.400000000000006,47361.12062228846
57.5,47373.260786796
57.6,47385.40221528503
57.7,47397.5449076849
57.800000000000004,47409.6888639252
57.900000000000006,47421.83408393614
58.0,47433.980567648265
58.1,47446.12831499259
58.2,47458.277325900366
58.300000000000004,47470.427600303425
58.400000000000006,47482.5791381337
58.5,47494.73193932362
58.6,47506.88600380576
58.7,47519.04133151314
58.800000000000004,47531.19792237885
58.900000000000006,47543.355776336415
59.0,47555.51489331946
59.1,47567.6752732619
59.2,47579.83691609779
59.300000000000004,47591.99982176149
59.400000000000006,47604.163990187386
59.5,47616.3294213102
59.6,47628.496115064634
59.7,47640.66407138572
59.800000000000004,47652.83329020848
59.900000000000006,47665.00377146818
60.0,47677.175515100134
60.1,47689.34852103981
60.2,47701.52278922271
60.300000000000004,47713.69831958456
60.400000000000006,47725.875112061054
60.5,47738.05316658808
60.6,47750.23248310149
60.7,47762.41306153732
60.800000000000004,47774.59490183157
60.900000000000006,47786.77800392042
61.0,47798.96236773998
61.1,47811.14799322653
61.2,47823.33488031627
61.300000000000004,47835.52302894563
61.400000000000006,47847.712439050854
61.5,47859.903110568426
61.6,47872.09504343471
61.7,47884.28823758621
61.800000000000004,47896.48269295937
61.900000000000006,47908.67840949074
62.0,47920.87538711681
62.1,47933.07362577415
62.2,47945.27312539927
62.300000000000004,47957.47388592884
62.400000000000006,47969.67590729937
62.5,47981.879189447485
62.6,47994.083732309766
62.7,48006.289535822856
62.800000000000004,48018.496599923295
62.900000000000006,48030.70492454777
63.0,48042.91450963283
63.1,48055.125355115124
63.2,48067.33746093119
63.300000000000004,48079.5508270177
63.400000000000006,48091.76545331117
63.5,48103.98133974826
63.6,48116.19848626547
63.7,48128.416892799425
63.800000000000004,48140.63655928662
63.900000000000006,48152.85748566366
64.0,48165.07967186702
64.10000000000001,48177.303117833246
64.2,48189.52782349881
64.3,48201.75378880023
64.4,48213.98101367393
64.5,48226.20949805642
64.60000000000001,48238.439241884065
64.7,48250.67024509338
64.8,48262.902507620674
64.9,48275.136029402376
65.0,48287.37081037483
65.10000000000001,48299.60685047439
65.2,48311.84414963731
65.3,48324.082707799986
65.4,48336.3225248986
65.5,48348.56360086949
65.60000000000001,48360.80593564881
65.7,48373.049529172866
65.8,48385.294381377775
65.9,48397.54049219974
66.0,48409.78786157487
66.10000000000001,48422.036489439306
66.2,48434.28637572911
66.3,48446.53752038041
66.4,48458.789923329154
66.5,48471.04358451148
66.60000000000001,48483.29850386327
66.7,48495.55468132062
66.8,48507.81211681936
66.9,48520.07081029551
67.0,48532.33076168489
67.10000000000001,48544.59197092341
67.2,48556.85443794687
67.3,48569.118162691164
67.4,48581.383145092004
67.5,48593.64938508524
67.60000000000001,48605.91688260651
67.7,48618.18563759165
67.8,48630.45564997625
67.9,48642.72691969605
68.0,48654.99944668663
68.10000000000001,48667.273230883635
68.2,48679.54827222259
68.3,48691.82457063914
68.4,48704.102126068734
68.5,48716.38093844694
68.60000000000001,48728.66100770914
68.7,48740.94233379093
68.8,48753.22491662761
